 1.8211975E+00  3.2663308E+03
 1.9743428E+00  3.2997336E+03
 2.1274881E+00  3.3350134E+03
 2.2806334E+00  3.3707480E+03
 2.4337788E+00  3.4079456E+03
 2.5869241E+00  3.4556477E+03
 2.7400694E+00  3.5060051E+03
 2.8932147E+00  3.5540432E+03
 3.0463598E+00  3.6112161E+03
 3.1995051E+00  3.6854453E+03
 3.3526504E+00  3.7705054E+03
 3.5057957E+00  3.8679753E+03
 3.6589410E+00  3.9819636E+03
 3.8120863E+00  4.1172666E+03
 3.9652317E+00  4.2688574E+03
 4.1183772E+00  4.4470488E+03
 4.2715220E+00  4.6682139E+03
 4.4246674E+00  4.9595356E+03
 4.5778127E+00  5.3346069E+03
 4.7309580E+00  5.8379863E+03
 4.8841033E+00  6.5142563E+03
 5.0372486E+00  7.3436367E+03
 5.1903939E+00  8.2697900E+03
 5.3435392E+00  9.1620146E+03
 5.4966846E+00  9.9593320E+03
 5.6498299E+00  1.0639185E+04
 5.8029752E+00  1.1181547E+04
 5.9561205E+00  1.1630133E+04
 6.1092658E+00  1.2003314E+04
 6.2624111E+00  1.2335613E+04
 6.4155564E+00  1.2635904E+04
 6.5687017E+00  1.2921975E+04
 6.7218471E+00  1.3176942E+04
 6.8749924E+00  1.3392589E+04
 7.0281377E+00  1.3606276E+04
 7.1812830E+00  1.3812425E+04
 7.3344283E+00  1.4016126E+04
 7.4875736E+00  1.4241112E+04
 7.6407189E+00  1.4495643E+04
 7.7938643E+00  1.4791364E+04
 7.9470096E+00  1.5057785E+04
 8.1001549E+00  1.5212017E+04
 8.2532997E+00  1.5287322E+04
 8.4064455E+00  1.5383007E+04
 8.5595903E+00  1.5532402E+04
 8.7127361E+00  1.5719827E+04
 8.8658810E+00  1.5938337E+04
 9.0190268E+00  1.6177845E+04
 9.1721716E+00  1.6432355E+04
 9.3253174E+00  1.6674191E+04
 9.4784622E+00  1.6901266E+04
 9.6316080E+00  1.7130430E+04
 9.7847528E+00  1.7389367E+04
 9.9378986E+00  1.7699955E+04
 1.0091043E+01  1.8015305E+04
 1.0244189E+01  1.8308127E+04
 1.0397334E+01  1.8588783E+04
 1.0550480E+01  1.8882387E+04
 1.0703625E+01  1.9198279E+04
 1.0856771E+01  1.9513289E+04
 1.1009915E+01  1.9825654E+04
 1.1163061E+01  2.0151354E+04
 1.1316206E+01  2.0503369E+04
 1.1469352E+01  2.0874078E+04
 1.1622497E+01  2.1273676E+04
 1.1775641E+01  2.1683264E+04
 1.1928787E+01  2.2097762E+04
 1.2081932E+01  2.2520389E+04
 1.2235078E+01  2.2962748E+04
 1.2388223E+01  2.3429930E+04
 1.2541368E+01  2.3918139E+04
 1.2694513E+01  2.4417582E+04
 1.2847659E+01  2.4923715E+04
 1.3000804E+01  2.5428254E+04
 1.3153950E+01  2.5921490E+04
 1.3307095E+01  2.6383643E+04
 1.3460240E+01  2.6833861E+04
 1.3613385E+01  2.7322801E+04
 1.3766531E+01  2.7825369E+04
 1.3919676E+01  2.8305338E+04
 1.4072822E+01  2.8754777E+04
 1.4225966E+01  2.9176082E+04
 1.4379112E+01  2.9581652E+04
 1.4532257E+01  2.9970875E+04
 1.4685403E+01  3.0368672E+04
 1.4838548E+01  3.0782438E+04
 1.4991693E+01  3.1196742E+04
 1.5144838E+01  3.1584559E+04
 1.5297984E+01  3.1931055E+04
 1.5451129E+01  3.2240303E+04
 1.5604275E+01  3.2507188E+04
 1.5757420E+01  3.2771824E+04
 1.5910565E+01  3.3014824E+04
 1.6063711E+01  3.3246762E+04
 1.6216856E+01  3.3478547E+04
 1.6370001E+01  3.3740215E+04
 1.6523146E+01  3.3960805E+04
 1.6676291E+01  3.4090793E+04
 1.6829437E+01  3.4154723E+04
 1.6982582E+01  3.4216047E+04
 1.7135727E+01  3.4302941E+04
 1.7288872E+01  3.4384391E+04
 1.7442019E+01  3.4440766E+04
 1.7595163E+01  3.4468363E+04
 1.7748308E+01  3.4446801E+04
 1.7901453E+01  3.4398043E+04
 1.8054600E+01  3.4322988E+04
 1.8207745E+01  3.4231125E+04
 1.8360889E+01  3.4144566E+04
 1.8514034E+01  3.4089191E+04
 1.8667181E+01  3.4017238E+04
 1.8820326E+01  3.3883883E+04
 1.8973471E+01  3.3738555E+04
 1.9126616E+01  3.3586746E+04
 1.9279762E+01  3.3435523E+04
 1.9432907E+01  3.3274684E+04
 1.9586052E+01  3.3110117E+04
 1.9739197E+01  3.2941039E+04
 1.9892344E+01  3.2771105E+04
 2.0045488E+01  3.2599170E+04
 2.0198633E+01  3.2411316E+04
 2.0351778E+01  3.2197066E+04
 2.0504925E+01  3.1939875E+04
 2.0658070E+01  3.1680988E+04
 2.0811214E+01  3.1437945E+04
 2.0964359E+01  3.1207428E+04
 2.1117506E+01  3.1021033E+04
 2.1270651E+01  3.0839922E+04
 2.1423796E+01  3.0642801E+04
 2.1576941E+01  3.0430975E+04
 2.1730085E+01  3.0210609E+04
 2.1883232E+01  2.9972268E+04
 2.2036377E+01  2.9717221E+04
 2.2189522E+01  2.9468441E+04
 2.2342667E+01  2.9224227E+04
 2.2495813E+01  2.8984477E+04
 2.2648958E+01  2.8760561E+04
 2.2802103E+01  2.8510088E+04
 2.2955248E+01  2.8236639E+04
 2.3108395E+01  2.7979934E+04
 2.3261539E+01  2.7727633E+04
 2.3414684E+01  2.7465717E+04
 2.3567829E+01  2.7207617E+04
 2.3720976E+01  2.6953875E+04
 2.3874121E+01  2.6719271E+04
 2.4027266E+01  2.6501734E+04
 2.4180410E+01  2.6281775E+04
 2.4333557E+01  2.6049969E+04
 2.4486702E+01  2.5798363E+04
 2.4639847E+01  2.5537529E+04
 2.4792992E+01  2.5299242E+04
 2.4946138E+01  2.5082336E+04
 2.5099283E+01  2.4871811E+04
 2.5252428E+01  2.4648207E+04
 2.5405573E+01  2.4427744E+04
 2.5558720E+01  2.4218133E+04
 2.5711864E+01  2.4020002E+04
 2.5865009E+01  2.3815609E+04
 2.6018154E+01  2.3607545E+04
 2.6171301E+01  2.3428725E+04
 2.6324446E+01  2.3281721E+04
 2.6477591E+01  2.3148168E+04
 2.6630735E+01  2.3030801E+04
 2.6783880E+01  2.2921160E+04
 2.6937027E+01  2.2802135E+04
 2.7090172E+01  2.2686609E+04
 2.7243317E+01  2.2589664E+04
 2.7396461E+01  2.2487230E+04
 2.7549608E+01  2.2391742E+04
 2.7702753E+01  2.2302920E+04
 2.7855898E+01  2.2221885E+04
 2.8009043E+01  2.2155068E+04
 2.8162189E+01  2.2088230E+04
 2.8315334E+01  2.2035047E+04
 2.8468479E+01  2.1977539E+04
 2.8621624E+01  2.1914006E+04
 2.8774771E+01  2.1865621E+04
 2.8927916E+01  2.1839881E+04
 2.9081060E+01  2.1828123E+04
 2.9234205E+01  2.1808311E+04
 2.9387352E+01  2.1776268E+04
 2.9540497E+01  2.1739578E+04
 2.9693642E+01  2.1702799E+04
 2.9846786E+01  2.1664578E+04
 2.9999933E+01  2.1630576E+04
 3.0153078E+01  2.1595186E+04
 3.0306223E+01  2.1559855E+04
 3.0459368E+01  2.1540709E+04
 3.0612514E+01  2.1523031E+04
 3.0765659E+01  2.1499373E+04
 3.0918804E+01  2.1465131E+04
 3.1071949E+01  2.1433332E+04
 3.1225094E+01  2.1411990E+04
 3.1378241E+01  2.1392422E+04
 3.1531385E+01  2.1378420E+04
 3.1684530E+01  2.1354627E+04
 3.1837675E+01  2.1324857E+04
 3.1990822E+01  2.1300998E+04
 3.2143967E+01  2.1295686E+04
 3.2297112E+01  2.1294293E+04
 3.2450256E+01  2.1268699E+04
 3.2603401E+01  2.1245568E+04
 3.2756546E+01  2.1228285E+04
 3.2909695E+01  2.1207133E+04
 3.3062840E+01  2.1193604E+04
 3.3215984E+01  2.1187021E+04
 3.3369129E+01  2.1167338E+04
 3.3522274E+01  2.1153721E+04
 3.3675419E+01  2.1149324E+04
 3.3828564E+01  2.1137686E+04
 3.3981709E+01  2.1123104E+04
 3.4134857E+01  2.1106566E+04
 3.4288002E+01  2.1082756E+04
 3.4441147E+01  2.1056420E+04
 3.4594292E+01  2.1039512E+04
 3.4747437E+01  2.1032943E+04
 3.4900581E+01  2.1025496E+04
 3.5053726E+01  2.1008104E+04
 3.5206871E+01  2.0999982E+04
 3.5360020E+01  2.0995482E+04
 3.5513165E+01  2.0987031E+04
 3.5666309E+01  2.0984949E+04
 3.5819454E+01  2.0978820E+04
 3.5972599E+01  2.0967367E+04
 3.6125744E+01  2.0954379E+04
 3.6278889E+01  2.0945506E+04
 3.6432034E+01  2.0941430E+04
 3.6585178E+01  2.0946770E+04
 3.6738327E+01  2.0951469E+04
 3.6891472E+01  2.0952572E+04
 3.7044617E+01  2.0960990E+04
 3.7197762E+01  2.0972873E+04
 3.7350906E+01  2.0980617E+04
 3.7504051E+01  2.0987178E+04
 3.7657196E+01  2.1007824E+04
 3.7810341E+01  2.1034813E+04
 3.7963490E+01  2.1055678E+04
 3.8116634E+01  2.1073514E+04
 3.8269779E+01  2.1090727E+04
 3.8422924E+01  2.1109311E+04
 3.8576069E+01  2.1131244E+04
 3.8729214E+01  2.1155037E+04
 3.8882359E+01  2.1178287E+04
 3.9035503E+01  2.1210289E+04
 3.9188652E+01  2.1252082E+04
 3.9341797E+01  2.1296445E+04
 3.9494942E+01  2.1334496E+04
 3.9648087E+01  2.1371646E+04
 3.9801231E+01  2.1401076E+04
 3.9954376E+01  2.1422086E+04
 4.0107521E+01  2.1448254E+04
 4.0260666E+01  2.1477287E+04
 4.0413815E+01  2.1505121E+04
 4.0566959E+01  2.1543559E+04
 4.0720104E+01  2.1589369E+04
 4.0873249E+01  2.1635010E+04
 4.1026394E+01  2.1668844E+04
 4.1179539E+01  2.1710715E+04
 4.1332684E+01  2.1763451E+04
 4.1485828E+01  2.1801211E+04
 4.1638973E+01  2.1821277E+04
 4.1792122E+01  2.1837324E+04
 4.1945267E+01  2.1848830E+04
 4.2098412E+01  2.1861541E+04
 4.2251556E+01  2.1887391E+04
 4.2404701E+01  2.1919143E+04
 4.2557846E+01  2.1949037E+04
 4.2710991E+01  2.1968186E+04
 4.2864136E+01  2.1979709E+04
 4.3017284E+01  2.1980229E+04
 4.3170429E+01  2.1977352E+04
 4.3323574E+01  2.1973895E+04
 4.3476719E+01  2.1977412E+04
 4.3629864E+01  2.1979676E+04
 4.3783009E+01  2.1971088E+04
 4.3936153E+01  2.1949816E+04
 4.4089298E+01  2.1932488E+04
 4.4242447E+01  2.1913242E+04
 4.4395592E+01  2.1892205E+04
 4.4548737E+01  2.1866818E+04
 4.4701881E+01  2.1839125E+04
 4.4855026E+01  2.1812816E+04
 4.5008171E+01  2.1769717E+04
 4.5161316E+01  2.1714301E+04
 4.5314461E+01  2.1650545E+04
 4.5467609E+01  2.1581092E+04
 4.5620754E+01  2.1511307E+04
 4.5773899E+01  2.1450691E+04
 4.5927044E+01  2.1393762E+04
 4.6080189E+01  2.1318705E+04
 4.6233334E+01  2.1233518E+04
 4.6386478E+01  2.1153730E+04
 4.6539623E+01  2.1087471E+04
 4.6692768E+01  2.1011279E+04
 4.6845917E+01  2.0916451E+04
 4.6999062E+01  2.0817016E+04
 4.7152206E+01  2.0722346E+04
 4.7305351E+01  2.0621328E+04
 4.7458496E+01  2.0501988E+04
 4.7611641E+01  2.0375904E+04
 4.7764786E+01  2.0250209E+04
 4.7917931E+01  2.0124824E+04
 4.8071079E+01  2.0000840E+04
 4.8224224E+01  1.9871268E+04
 4.8377369E+01  1.9733664E+04
 4.8530514E+01  1.9600426E+04
 4.8683659E+01  1.9482406E+04
 4.8836803E+01  1.9377711E+04
 4.8989948E+01  1.9272762E+04
 4.9143093E+01  1.9161443E+04
 4.9296242E+01  1.9041992E+04
 4.9449387E+01  1.8920598E+04
 4.9602531E+01  1.8791822E+04
 4.9755676E+01  1.8666768E+04
 4.9908821E+01  1.8543838E+04
 5.0061966E+01  1.8411496E+04
 5.0215111E+01  1.8268568E+04
 5.0368256E+01  1.8125434E+04
 5.0521404E+01  1.7990012E+04
 5.0674549E+01  1.7855262E+04
 5.0827694E+01  1.7729367E+04
 5.0980839E+01  1.7601197E+04
 5.1133984E+01  1.7472412E+04
 5.1287128E+01  1.7339406E+04
 5.1440273E+01  1.7211557E+04
 5.1593418E+01  1.7093227E+04
 5.1746563E+01  1.6977918E+04
 5.1899712E+01  1.6860541E+04
 5.2052856E+01  1.6740318E+04
 5.2206001E+01  1.6614367E+04
 5.2359146E+01  1.6488797E+04
 5.2512291E+01  1.6366472E+04
 5.2665436E+01  1.6245766E+04
 5.2818581E+01  1.6131977E+04
 5.2971725E+01  1.6034065E+04
 5.3124874E+01  1.5933392E+04
 5.3278019E+01  1.5824478E+04
 5.3431164E+01  1.5715626E+04
 5.3584309E+01  1.5610336E+04
 5.3737453E+01  1.5518101E+04
 5.3890598E+01  1.5432050E+04
 5.4043743E+01  1.5344571E+04
 5.4196888E+01  1.5254580E+04
 5.4350037E+01  1.5170643E+04
 5.4503181E+01  1.5086817E+04
 5.4656326E+01  1.4998474E+04
 5.4809471E+01  1.4919282E+04
 5.4962616E+01  1.4840873E+04
 5.5115761E+01  1.4765585E+04
 5.5268906E+01  1.4697881E+04
 5.5422050E+01  1.4627711E+04
 5.5575199E+01  1.4552457E+04
 5.5728344E+01  1.4482456E+04
 5.5881489E+01  1.4416273E+04
 5.6034634E+01  1.4356312E+04
 5.6187778E+01  1.4300659E+04
 5.6340923E+01  1.4237232E+04
 5.6494068E+01  1.4169332E+04
 5.6647213E+01  1.4106384E+04
 5.6800358E+01  1.4056901E+04
 5.6953506E+01  1.4014584E+04
 5.7106651E+01  1.3970100E+04
 5.7259796E+01  1.3920715E+04
 5.7412941E+01  1.3867376E+04
 5.7566086E+01  1.3817215E+04
 5.7719231E+01  1.3768158E+04
 5.7872375E+01  1.3730256E+04
 5.8025520E+01  1.3703145E+04
 5.8178669E+01  1.3674281E+04
 5.8331814E+01  1.3641438E+04
 5.8484959E+01  1.3610131E+04
 5.8638103E+01  1.3580801E+04
 5.8791248E+01  1.3549805E+04
 5.8944393E+01  1.3521907E+04
 5.9097538E+01  1.3494466E+04
 5.9250683E+01  1.3463077E+04
 5.9403831E+01  1.3429758E+04
 5.9556976E+01  1.3393537E+04
 5.9710121E+01  1.3358052E+04
 5.9863266E+01  1.3330243E+04
 6.0016411E+01  1.3306366E+04
 6.0169556E+01  1.3280425E+04
 6.0322701E+01  1.3249988E+04
 6.0475845E+01  1.3216854E+04
 6.0628990E+01  1.3190034E+04
 6.0782139E+01  1.3167366E+04
 6.0935284E+01  1.3142712E+04
 6.1088428E+01  1.3119708E+04
 6.1241573E+01  1.3097176E+04
 6.1394718E+01  1.3073354E+04
 6.1547863E+01  1.3046645E+04
 6.1701008E+01  1.3030965E+04
 6.1854153E+01  1.3015331E+04
 6.2007301E+01  1.2992276E+04
 6.2160446E+01  1.2962135E+04
 6.2313591E+01  1.2927648E+04
 6.2466736E+01  1.2897870E+04
 6.2619881E+01  1.2870835E+04
 6.2773026E+01  1.2840376E+04
 6.2926170E+01  1.2815401E+04
 6.3079315E+01  1.2793212E+04
 6.3232464E+01  1.2770051E+04
 6.3385609E+01  1.2747992E+04
 6.3538754E+01  1.2719685E+04
 6.3691898E+01  1.2691727E+04
 6.3845043E+01  1.2669960E+04
 6.3998188E+01  1.2643386E+04
 6.4151337E+01  1.2610967E+04
 6.4304482E+01  1.2582717E+04
 6.4457626E+01  1.2560211E+04
 6.4610771E+01  1.2539014E+04
 6.4763916E+01  1.2511721E+04
 6.4917061E+01  1.2489171E+04
 6.5070206E+01  1.2467569E+04
 6.5223351E+01  1.2447239E+04
 6.5376495E+01  1.2422161E+04
 6.5529640E+01  1.2396907E+04
 6.5682785E+01  1.2374591E+04
 6.5835930E+01  1.2352481E+04
 6.5989075E+01  1.2326055E+04
 6.6142220E+01  1.2303432E+04
 6.6295364E+01  1.2276821E+04
 6.6448517E+01  1.2250214E+04
 6.6601662E+01  1.2225585E+04
 6.6754807E+01  1.2199156E+04
 6.6907951E+01  1.2172402E+04
 6.7061096E+01  1.2143625E+04
 6.7214241E+01  1.2118805E+04
 6.7367386E+01  1.2095268E+04
 6.7520531E+01  1.2074429E+04
 6.7673676E+01  1.2050091E+04
 6.7826820E+01  1.2023989E+04
 6.7979965E+01  1.1999547E+04
 6.8133110E+01  1.1971287E+04
 6.8286255E+01  1.1941619E+04
 6.8439400E+01  1.1912180E+04
 6.8592545E+01  1.1888832E+04
 6.8745689E+01  1.1864780E+04
 6.8898842E+01  1.1840703E+04
 6.9051987E+01  1.1818767E+04
 6.9205132E+01  1.1795180E+04
 6.9358276E+01  1.1774425E+04
 6.9511421E+01  1.1754827E+04
 6.9664566E+01  1.1737610E+04
 6.9817711E+01  1.1723569E+04
 6.9970856E+01  1.1712276E+04
 7.0124001E+01  1.1693741E+04
 7.0277145E+01  1.1666422E+04
 7.0430290E+01  1.1637624E+04
 7.0583435E+01  1.1621576E+04
 7.0736580E+01  1.1604217E+04
 7.0889725E+01  1.1588538E+04
 7.1042870E+01  1.1571732E+04
 7.1196014E+01  1.1550314E+04
 7.1349159E+01  1.1530924E+04
 7.1502312E+01  1.1517779E+04
 7.1655457E+01  1.1504066E+04
 7.1808601E+01  1.1485501E+04
 7.1961746E+01  1.1468363E+04
 7.2114891E+01  1.1450366E+04
 7.2268036E+01  1.1432885E+04
 7.2421181E+01  1.1421989E+04
 7.2574326E+01  1.1405281E+04
 7.2727470E+01  1.1385901E+04
 7.2880615E+01  1.1366300E+04
 7.3033760E+01  1.1350763E+04
 7.3186905E+01  1.1338945E+04
 7.3340050E+01  1.1326737E+04
 7.3493195E+01  1.1310106E+04
 7.3646339E+01  1.1298266E+04
 7.3799484E+01  1.1293653E+04
 7.3952637E+01  1.1285605E+04
 7.4105782E+01  1.1272987E+04
 7.4258926E+01  1.1256279E+04
 7.4412071E+01  1.1250383E+04
 7.4565216E+01  1.1248631E+04
 7.4718361E+01  1.1231667E+04
 7.4871506E+01  1.1211936E+04
 7.5024651E+01  1.1198988E+04
 7.5177795E+01  1.1191183E+04
 7.5330940E+01  1.1177838E+04
 7.5484085E+01  1.1163715E+04
 7.5637230E+01  1.1155800E+04
 7.5790375E+01  1.1149456E+04
 7.5943520E+01  1.1143030E+04
 7.6096664E+01  1.1132324E+04
 7.6249809E+01  1.1122657E+04
 7.6402954E+01  1.1110933E+04
 7.6556107E+01  1.1096041E+04
 7.6709251E+01  1.1078865E+04
 7.6862396E+01  1.1069175E+04
 7.7015541E+01  1.1059373E+04
 7.7168686E+01  1.1048294E+04
 7.7321831E+01  1.1037342E+04
 7.7474976E+01  1.1027268E+04
 7.7628120E+01  1.1014099E+04
 7.7781265E+01  1.0995049E+04
 7.7934410E+01  1.0976727E+04
 7.8087555E+01  1.0962602E+04
 7.8240700E+01  1.0951880E+04
 7.8393845E+01  1.0937947E+04
 7.8546989E+01  1.0928558E+04
 7.8700134E+01  1.0922391E+04
 7.8853279E+01  1.0913538E+04
 7.9006432E+01  1.0905735E+04
 7.9159576E+01  1.0895707E+04
 7.9312721E+01  1.0884476E+04
 7.9465866E+01  1.0870080E+04
 7.9619011E+01  1.0854799E+04
 7.9772156E+01  1.0838133E+04
 7.9925301E+01  1.0818478E+04
 8.0078445E+01  1.0804531E+04
 8.0231590E+01  1.0789595E+04
 8.0384735E+01  1.0776326E+04
 8.0537880E+01  1.0765651E+04
 8.0691025E+01  1.0751527E+04
 8.0844170E+01  1.0734885E+04
 8.0997314E+01  1.0714848E+04
 8.1150459E+01  1.0691761E+04
 8.1303604E+01  1.0673691E+04
 8.1456749E+01  1.0662595E+04
 8.1609901E+01  1.0654835E+04
 8.1763046E+01  1.0647929E+04
 8.1916191E+01  1.0634188E+04
 8.2069336E+01  1.0624069E+04
 8.2222481E+01  1.0614850E+04
 8.2375626E+01  1.0602524E+04
 8.2528770E+01  1.0585813E+04
 8.2681915E+01  1.0565427E+04
 8.2835060E+01  1.0542706E+04
 8.2988205E+01  1.0520213E+04
 8.3141350E+01  1.0498346E+04
 8.3294495E+01  1.0481726E+04
 8.3447639E+01  1.0462642E+04
 8.3600784E+01  1.0440695E+04
 8.3753929E+01  1.0418568E+04
 8.3907074E+01  1.0398826E+04
 8.4060226E+01  1.0381703E+04
 8.4213371E+01  1.0368811E+04
 8.4366516E+01  1.0354224E+04
 8.4519661E+01  1.0339471E+04
 8.4672806E+01  1.0322766E+04
 8.4825951E+01  1.0306561E+04
 8.4979095E+01  1.0289157E+04
 8.5132240E+01  1.0272633E+04
 8.5285385E+01  1.0255908E+04
 8.5438530E+01  1.0237935E+04
 8.5591675E+01  1.0222552E+04
 8.5744820E+01  1.0212851E+04
 8.5897964E+01  1.0199471E+04
 8.6051109E+01  1.0182207E+04
 8.6204254E+01  1.0163055E+04
 8.6357399E+01  1.0144413E+04
 8.6510544E+01  1.0126597E+04
 8.6663696E+01  1.0114059E+04
 8.6816841E+01  1.0100777E+04
 8.6969986E+01  1.0087315E+04
 8.7123131E+01  1.0072737E+04
 8.7276276E+01  1.0054486E+04
 8.7429420E+01  1.0036014E+04
 8.7582565E+01  1.0018859E+04
 8.7735710E+01  1.0002325E+04
 8.7888855E+01  9.9833838E+03
 8.8042000E+01  9.9643701E+03
 8.8195145E+01  9.9457139E+03
 8.8348289E+01  9.9287637E+03
 8.8501434E+01  9.9135957E+03
 8.8654579E+01  9.9010527E+03
 8.8807724E+01  9.8903223E+03
 8.8960869E+01  9.8804551E+03
 8.9114021E+01  9.8641494E+03
 8.9267166E+01  9.8447988E+03
 8.9420311E+01  9.8271064E+03
 8.9573456E+01  9.8083730E+03
 8.9726601E+01  9.7877852E+03
 8.9879745E+01  9.7682852E+03
 9.0032890E+01  9.7516504E+03
 9.0186035E+01  9.7362871E+03
 9.0339180E+01  9.7175830E+03
 9.0492325E+01  9.6984941E+03
 9.0645470E+01  9.6821816E+03
 9.0798615E+01  9.6676748E+03
 9.0951759E+01  9.6525205E+03
 9.1104904E+01  9.6354131E+03
 9.1258049E+01  9.6188057E+03
 9.1411194E+01  9.6047637E+03
 9.1564339E+01  9.5888008E+03
 9.1717491E+01  9.5732598E+03
 9.1870636E+01  9.5541484E+03
 9.2023781E+01  9.5366826E+03
 9.2176926E+01  9.5180469E+03
 9.2330070E+01  9.4989854E+03
 9.2483215E+01  9.4780605E+03
 9.2636360E+01  9.4647090E+03
 9.2789505E+01  9.4557402E+03
 9.2942650E+01  9.4484219E+03
 9.3095795E+01  9.4353936E+03
 9.3248940E+01  9.4211484E+03
 9.3402084E+01  9.4068398E+03
 9.3555229E+01  9.3942080E+03
 9.3708374E+01  9.3784434E+03
 9.3861519E+01  9.3574775E+03
 9.4014664E+01  9.3375801E+03
 9.4167816E+01  9.3211768E+03
 9.4320961E+01  9.3090459E+03
 9.4474106E+01  9.2949453E+03
 9.4627251E+01  9.2810127E+03
 9.4780396E+01  9.2663730E+03
 9.4933540E+01  9.2529316E+03
 9.5086685E+01  9.2373555E+03
 9.5239830E+01  9.2193232E+03
 9.5392975E+01  9.2029053E+03
 9.5546120E+01  9.1869551E+03
 9.5699265E+01  9.1772275E+03
 9.5852409E+01  9.1661475E+03
 9.6005554E+01  9.1450195E+03
 9.6158699E+01  9.1271279E+03
 9.6311844E+01  9.1146602E+03
 9.6464989E+01  9.1004639E+03
 9.6618134E+01  9.0832510E+03
 9.6771286E+01  9.0652764E+03
 9.6924431E+01  9.0511973E+03
 9.7077576E+01  9.0360000E+03
 9.7230721E+01  9.0238525E+03
 9.7383865E+01  9.0112334E+03
 9.7537010E+01  8.9936729E+03
 9.7690155E+01  8.9752529E+03
 9.7843300E+01  8.9557197E+03
 9.7996445E+01  8.9400791E+03
 9.8149590E+01  8.9314736E+03
 9.8302734E+01  8.9206064E+03
 9.8455879E+01  8.9066670E+03
 9.8609024E+01  8.8961445E+03
 9.8762169E+01  8.8885361E+03
 9.8915314E+01  8.8743320E+03
 9.9068459E+01  8.8591348E+03
 9.9221611E+01  8.8460752E+03
 9.9374756E+01  8.8346826E+03
 9.9527901E+01  8.8237441E+03
 9.9681046E+01  8.8097549E+03
 9.9834190E+01  8.7985635E+03
 9.9987335E+01  8.7897090E+03
 1.0014048E+02  8.7823311E+03
 1.0029362E+02  8.7734600E+03
 1.0044677E+02  8.7664590E+03
 1.0059991E+02  8.7547607E+03
 1.0075306E+02  8.7443848E+03
 1.0090620E+02  8.7318994E+03
 1.0105935E+02  8.7159238E+03
 1.0121249E+02  8.7036914E+03
 1.0136564E+02  8.6971143E+03
 1.0151878E+02  8.6872988E+03
 1.0167193E+02  8.6756689E+03
 1.0182508E+02  8.6619365E+03
 1.0197823E+02  8.6477363E+03
 1.0213137E+02  8.6370068E+03
 1.0228452E+02  8.6279512E+03
 1.0243766E+02  8.6197168E+03
 1.0259081E+02  8.6115098E+03
 1.0274395E+02  8.6016699E+03
 1.0289709E+02  8.5901445E+03
 1.0305024E+02  8.5793535E+03
 1.0320338E+02  8.5691670E+03
 1.0335653E+02  8.5565225E+03
 1.0350967E+02  8.5459756E+03
 1.0366282E+02  8.5361631E+03
 1.0381596E+02  8.5270742E+03
 1.0396911E+02  8.5165615E+03
 1.0412225E+02  8.5069268E+03
 1.0427541E+02  8.4959668E+03
 1.0442855E+02  8.4877207E+03
 1.0458170E+02  8.4778887E+03
 1.0473484E+02  8.4710977E+03
 1.0488799E+02  8.4680742E+03
 1.0504113E+02  8.4627051E+03
 1.0519427E+02  8.4559346E+03
 1.0534742E+02  8.4487080E+03
 1.0550056E+02  8.4386328E+03
 1.0565371E+02  8.4284951E+03
 1.0580685E+02  8.4207031E+03
 1.0596000E+02  8.4111387E+03
 1.0611314E+02  8.4029385E+03
 1.0626629E+02  8.3974707E+03
 1.0641943E+02  8.3928799E+03
 1.0657258E+02  8.3865723E+03
 1.0672572E+02  8.3798838E+03
 1.0687888E+02  8.3726104E+03
 1.0703202E+02  8.3637861E+03
 1.0718517E+02  8.3541055E+03
 1.0733831E+02  8.3452988E+03
 1.0749146E+02  8.3366797E+03
 1.0764460E+02  8.3288467E+03
 1.0779774E+02  8.3250693E+03
 1.0795089E+02  8.3188926E+03
 1.0810403E+02  8.3096982E+03
 1.0825718E+02  8.3029902E+03
 1.0841032E+02  8.2985723E+03
 1.0856347E+02  8.2947598E+03
 1.0871661E+02  8.2914570E+03
 1.0886976E+02  8.2863193E+03
 1.0902290E+02  8.2797783E+03
 1.0917605E+02  8.2720254E+03
 1.0932920E+02  8.2689668E+03
 1.0948235E+02  8.2657217E+03
 1.0963549E+02  8.2582148E+03
 1.0978864E+02  8.2511816E+03
 1.0994178E+02  8.2438320E+03
 1.1009492E+02  8.2341729E+03
 1.1024807E+02  8.2256738E+03
 1.1040121E+02  8.2208623E+03
 1.1055436E+02  8.2153311E+03
 1.1070750E+02  8.2087275E+03
 1.1086065E+02  8.2012021E+03
 1.1101379E+02  8.1943652E+03
 1.1116694E+02  8.1896826E+03
 1.1132008E+02  8.1868584E+03
 1.1147323E+02  8.1826167E+03
 1.1162637E+02  8.1803730E+03
 1.1177952E+02  8.1754365E+03
 1.1193267E+02  8.1723975E+03
 1.1208582E+02  8.1688413E+03
 1.1223896E+02  8.1649331E+03
 1.1239211E+02  8.1608359E+03
 1.1254525E+02  8.1543755E+03
 1.1269839E+02  8.1469854E+03
 1.1285154E+02  8.1445044E+03
 1.1300468E+02  8.1421963E+03
 1.1315783E+02  8.1392681E+03
 1.1331097E+02  8.1372363E+03
 1.1346412E+02  8.1350273E+03
 1.1361726E+02  8.1300151E+03
 1.1377041E+02  8.1211104E+03
 1.1392355E+02  8.1135034E+03
 1.1407670E+02  8.1098628E+03
 1.1422984E+02  8.1051411E+03
 1.1438300E+02  8.0989238E+03
 1.1453614E+02  8.0947881E+03
 1.1468929E+02  8.0916680E+03
 1.1484243E+02  8.0890913E+03
 1.1499557E+02  8.0856631E+03
 1.1514872E+02  8.0820786E+03
 1.1530186E+02  8.0775063E+03
 1.1545501E+02  8.0707280E+03
 1.1560815E+02  8.0697363E+03
 1.1576130E+02  8.0708071E+03
 1.1591444E+02  8.0704805E+03
 1.1606759E+02  8.0686304E+03
 1.1622073E+02  8.0626162E+03
 1.1637388E+02  8.0572661E+03
 1.1652702E+02  8.0542461E+03
 1.1668017E+02  8.0495649E+03
 1.1683331E+02  8.0426699E+03
 1.1698647E+02  8.0354619E+03
 1.1713961E+02  8.0327783E+03
 1.1729276E+02  8.0285571E+03
 1.1744590E+02  8.0245635E+03
 1.1759904E+02  8.0220762E+03
 1.1775219E+02  8.0192061E+03
 1.1790533E+02  8.0163623E+03
 1.1805848E+02  8.0114224E+03
 1.1821162E+02  8.0076987E+03
 1.1836477E+02  8.0015459E+03
 1.1851791E+02  7.9980205E+03
 1.1867106E+02  7.9978320E+03
 1.1882420E+02  7.9973462E+03
 1.1897735E+02  7.9969253E+03
 1.1913049E+02  7.9921069E+03
 1.1928364E+02  7.9882095E+03
 1.1943678E+02  7.9870205E+03
 1.1958994E+02  7.9865181E+03
 1.1974308E+02  7.9850923E+03
 1.1989622E+02  7.9799512E+03
 1.2004937E+02  7.9755298E+03
 1.2020251E+02  7.9722217E+03
 1.2035566E+02  7.9701812E+03
 1.2050880E+02  7.9691089E+03
 1.2066195E+02  7.9664478E+03
 1.2081509E+02  7.9622305E+03
 1.2096824E+02  7.9577881E+03
 1.2112138E+02  7.9533564E+03
 1.2127453E+02  7.9494751E+03
 1.2142767E+02  7.9448232E+03
 1.2158082E+02  7.9387217E+03
 1.2173396E+02  7.9326606E+03
 1.2188711E+02  7.9316860E+03
 1.2204026E+02  7.9281899E+03
 1.2219341E+02  7.9259185E+03
 1.2234655E+02  7.9244214E+03
 1.2249969E+02  7.9210532E+03
 1.2265284E+02  7.9148379E+03
 1.2280598E+02  7.9108267E+03
 1.2295913E+02  7.9062822E+03
 1.2311227E+02  7.9018223E+03
 1.2326542E+02  7.9003359E+03
 1.2341856E+02  7.8950601E+03
 1.2357171E+02  7.8910845E+03
 1.2372485E+02  7.8860806E+03
 1.2387800E+02  7.8823042E+03
 1.2403114E+02  7.8758267E+03
 1.2418429E+02  7.8727974E+03
 1.2433743E+02  7.8742871E+03
 1.2449058E+02  7.8784971E+03
 1.2464373E+02  7.8839355E+03
 1.2479688E+02  7.8816821E+03
 1.2495002E+02  7.8669795E+03
 1.2510316E+02  7.8535737E+03
 1.2525631E+02  7.8475576E+03
 1.2540945E+02  7.8405322E+03
 1.2556260E+02  7.8322246E+03
 1.2571574E+02  7.8243882E+03
 1.2586889E+02  7.8170449E+03
 1.2602203E+02  7.8145513E+03
 1.2617518E+02  7.8118262E+03
 1.2632832E+02  7.8087832E+03
 1.2648147E+02  7.8041528E+03
 1.2663461E+02  7.8001162E+03
 1.2678776E+02  7.7979297E+03
 1.2694090E+02  7.7926348E+03
 1.2709406E+02  7.7847744E+03
 1.2724720E+02  7.7813789E+03
 1.2740034E+02  7.7773779E+03
 1.2755349E+02  7.7716436E+03
 1.2770663E+02  7.7660503E+03
 1.2785978E+02  7.7616709E+03
 1.2801292E+02  7.7559404E+03
 1.2816606E+02  7.7504370E+03
 1.2831921E+02  7.7480498E+03
 1.2847237E+02  7.7446987E+03
 1.2862550E+02  7.7370161E+03
 1.2877866E+02  7.7297734E+03
 1.2893179E+02  7.7274702E+03
 1.2908495E+02  7.7245859E+03
 1.2923808E+02  7.7179819E+03
 1.2939124E+02  7.7140273E+03
 1.2954437E+02  7.7113828E+03
 1.2969753E+02  7.7095024E+03
 1.2985066E+02  7.7049341E+03
 1.3000381E+02  7.6984038E+03
 1.3015695E+02  7.6925615E+03
 1.3031010E+02  7.6856743E+03
 1.3046324E+02  7.6792163E+03
 1.3061639E+02  7.6760259E+03
 1.3076953E+02  7.6743530E+03
 1.3092268E+02  7.6705088E+03
 1.3107584E+02  7.6675986E+03
 1.3122897E+02  7.6658638E+03
 1.3138213E+02  7.6599780E+03
 1.3153526E+02  7.6511406E+03
 1.3168842E+02  7.6447998E+03
 1.3184155E+02  7.6408774E+03
 1.3199471E+02  7.6369004E+03
 1.3214784E+02  7.6323789E+03
 1.3230099E+02  7.6269297E+03
 1.3245413E+02  7.6205640E+03
 1.3260728E+02  7.6128306E+03
 1.3276042E+02  7.6051299E+03
 1.3291357E+02  7.6014370E+03
 1.3306671E+02  7.5979194E+03
 1.3321986E+02  7.5925498E+03
 1.3337302E+02  7.5915791E+03
 1.3352615E+02  7.5896792E+03
 1.3367931E+02  7.5856245E+03
 1.3383244E+02  7.5803296E+03
 1.3398560E+02  7.5741606E+03
 1.3413873E+02  7.5655425E+03
 1.3429189E+02  7.5586973E+03
 1.3444502E+02  7.5519990E+03
 1.3459818E+02  7.5488057E+03
 1.3475131E+02  7.5479922E+03
 1.3490446E+02  7.5435127E+03
 1.3505760E+02  7.5389790E+03
 1.3521075E+02  7.5325874E+03
 1.3536389E+02  7.5287373E+03
 1.3551704E+02  7.5256055E+03
 1.3567018E+02  7.5218198E+03
 1.3582333E+02  7.5174194E+03
 1.3597649E+02  7.5139985E+03
 1.3612962E+02  7.5108320E+03
 1.3628278E+02  7.5068081E+03
 1.3643591E+02  7.5029360E+03
 1.3658907E+02  7.4972837E+03
 1.3674220E+02  7.4938457E+03
 1.3689536E+02  7.4894937E+03
 1.3704849E+02  7.4869468E+03
 1.3720164E+02  7.4851733E+03
 1.3735478E+02  7.4820093E+03
 1.3750793E+02  7.4787910E+03
 1.3766107E+02  7.4764165E+03
 1.3781422E+02  7.4722842E+03
 1.3796736E+02  7.4662583E+03
 1.3812051E+02  7.4607529E+03
 1.3827365E+02  7.4562217E+03
 1.3842680E+02  7.4568076E+03
 1.3857996E+02  7.4558232E+03
 1.3873309E+02  7.4511255E+03
 1.3888625E+02  7.4467803E+03
 1.3903938E+02  7.4445820E+03
 1.3919254E+02  7.4424443E+03
 1.3934567E+02  7.4362515E+03
 1.3949883E+02  7.4285586E+03
 1.3965196E+02  7.4229658E+03
 1.3980511E+02  7.4185938E+03
 1.3995825E+02  7.4166216E+03
 1.4011140E+02  7.4150332E+03
 1.4026454E+02  7.4104116E+03
 1.4041769E+02  7.4063335E+03
 1.4057083E+02  7.4024990E+03
 1.4072398E+02  7.3998232E+03
 1.4087712E+02  7.3994883E+03
 1.4103027E+02  7.4006685E+03
 1.4118343E+02  7.3998662E+03
 1.4133656E+02  7.3955005E+03
 1.4148972E+02  7.3907417E+03
 1.4164285E+02  7.3867339E+03
 1.4179601E+02  7.3832207E+03
 1.4194914E+02  7.3804614E+03
 1.4210229E+02  7.3827451E+03
 1.4225543E+02  7.3852827E+03
 1.4240858E+02  7.3828184E+03
 1.4256172E+02  7.3765991E+03
 1.4271487E+02  7.3743838E+03
 1.4286801E+02  7.3703447E+03
 1.4302116E+02  7.3671855E+03
 1.4317430E+02  7.3658428E+03
 1.4332745E+02  7.3635205E+03
 1.4348061E+02  7.3641514E+03
 1.4363374E+02  7.3674766E+03
 1.4378690E+02  7.3679814E+03
 1.4394003E+02  7.3667612E+03
 1.4409319E+02  7.3657148E+03
 1.4424632E+02  7.3627896E+03
 1.4439948E+02  7.3564697E+03
 1.4455261E+02  7.3503198E+03
 1.4470576E+02  7.3498115E+03
 1.4485890E+02  7.3499692E+03
 1.4501205E+02  7.3457896E+03
 1.4516519E+02  7.3428789E+03
 1.4531834E+02  7.3424404E+03
 1.4547148E+02  7.3399785E+03
 1.4562463E+02  7.3354546E+03
 1.4577777E+02  7.3312334E+03
 1.4593092E+02  7.3277856E+03
 1.4608408E+02  7.3264746E+03
 1.4623721E+02  7.3244780E+03
 1.4639037E+02  7.3226895E+03
 1.4654350E+02  7.3212393E+03
 1.4669666E+02  7.3218555E+03
 1.4684979E+02  7.3212295E+03
 1.4700294E+02  7.3201812E+03
 1.4715608E+02  7.3191191E+03
 1.4730923E+02  7.3169604E+03
 1.4746237E+02  7.3175332E+03
 1.4761552E+02  7.3166968E+03
 1.4776866E+02  7.3143882E+03
 1.4792181E+02  7.3117153E+03
 1.4807495E+02  7.3095024E+03
 1.4822810E+02  7.3052539E+03
 1.4838124E+02  7.3037734E+03
 1.4853439E+02  7.3027861E+03
 1.4868755E+02  7.3002397E+03
 1.4884068E+02  7.2993857E+03
 1.4899384E+02  7.3005977E+03
 1.4914697E+02  7.3016899E+03
 1.4930013E+02  7.3001860E+03
 1.4945326E+02  7.2978320E+03
 1.4960641E+02  7.2949604E+03
 1.4975955E+02  7.2914814E+03
 1.4991270E+02  7.2887871E+03
 1.5006584E+02  7.2880298E+03
 1.5021899E+02  7.2877832E+03
 1.5037213E+02  7.2852163E+03
 1.5052528E+02  7.2842725E+03
 1.5067842E+02  7.2841729E+03
 1.5083157E+02  7.2828345E+03
 1.5098471E+02  7.2850933E+03
 1.5113786E+02  7.2836167E+03
 1.5129102E+02  7.2803687E+03
 1.5144415E+02  7.2763301E+03
 1.5159731E+02  7.2711567E+03
 1.5175044E+02  7.2689258E+03
 1.5190359E+02  7.2675142E+03
 1.5205673E+02  7.2682041E+03
 1.5220988E+02  7.2683442E+03
 1.5236302E+02  7.2683442E+03
 1.5251617E+02  7.2664072E+03
 1.5266931E+02  7.2635557E+03
 1.5282246E+02  7.2625117E+03
 1.5297560E+02  7.2622119E+03
 1.5312875E+02  7.2588867E+03
 1.5328189E+02  7.2557075E+03
 1.5343504E+02  7.2546226E+03
 1.5358820E+02  7.2535732E+03
 1.5374133E+02  7.2495762E+03
 1.5389449E+02  7.2467290E+03
 1.5404762E+02  7.2492158E+03
 1.5420078E+02  7.2523755E+03
 1.5435391E+02  7.2521377E+03
 1.5450706E+02  7.2494150E+03
 1.5466020E+02  7.2468506E+03
 1.5481335E+02  7.2468877E+03
 1.5496649E+02  7.2478320E+03
 1.5511964E+02  7.2486797E+03
 1.5527278E+02  7.2470674E+03
 1.5542593E+02  7.2449556E+03
 1.5557907E+02  7.2453110E+03
 1.5573222E+02  7.2416055E+03
 1.5588536E+02  7.2362754E+03
 1.5603851E+02  7.2322026E+03
 1.5619167E+02  7.2301289E+03
 1.5634480E+02  7.2295391E+03
 1.5649796E+02  7.2310000E+03
 1.5665109E+02  7.2306675E+03
 1.5680424E+02  7.2305615E+03
 1.5695738E+02  7.2280015E+03
 1.5711053E+02  7.2258315E+03
 1.5726367E+02  7.2260806E+03
 1.5741682E+02  7.2252856E+03
 1.5756996E+02  7.2245132E+03
 1.5772311E+02  7.2227788E+03
 1.5787625E+02  7.2186719E+03
 1.5802940E+02  7.2195562E+03
 1.5818254E+02  7.2192109E+03
 1.5833569E+02  7.2174536E+03
 1.5848883E+02  7.2163555E+03
 1.5864198E+02  7.2184961E+03
 1.5879514E+02  7.2197075E+03
 1.5894827E+02  7.2173770E+03
 1.5910143E+02  7.2151270E+03
 1.5925456E+02  7.2141714E+03
 1.5940771E+02  7.2139917E+03
 1.5956085E+02  7.2131123E+03
 1.5971400E+02  7.2109546E+03
 1.5986714E+02  7.2091953E+03
 1.6002029E+02  7.2092065E+03
 1.6017343E+02  7.2087798E+03
 1.6032658E+02  7.2085156E+03
 1.6047972E+02  7.2085747E+03
 1.6063287E+02  7.2083335E+03
 1.6078601E+02  7.2064536E+03
 1.6093916E+02  7.2042021E+03
 1.6109230E+02  7.2008765E+03
 1.6124545E+02  7.1967075E+03
 1.6139861E+02  7.1918076E+03
 1.6155174E+02  7.1893516E+03
 1.6170490E+02  7.1874297E+03
 1.6185803E+02  7.1858359E+03
 1.6201118E+02  7.1846006E+03
 1.6216432E+02  7.1863252E+03
 1.6231747E+02  7.1911934E+03
 1.6247061E+02  7.1927656E+03
 1.6262376E+02  7.1878013E+03
 1.6277690E+02  7.1818135E+03
 1.6293005E+02  7.1795220E+03
 1.6308319E+02  7.1795894E+03
 1.6323634E+02  7.1789595E+03
 1.6338948E+02  7.1763438E+03
 1.6354263E+02  7.1748237E+03
 1.6369577E+02  7.1730327E+03
 1.6384892E+02  7.1732173E+03
 1.6400208E+02  7.1726382E+03
 1.6415521E+02  7.1672637E+03
 1.6430836E+02  7.1622485E+03
 1.6446150E+02  7.1623931E+03
 1.6461465E+02  7.1631509E+03
 1.6476779E+02  7.1646392E+03
 1.6492094E+02  7.1639321E+03
 1.6507408E+02  7.1630313E+03
 1.6522723E+02  7.1629331E+03
 1.6538037E+02  7.1619058E+03
 1.6553352E+02  7.1619360E+03
 1.6568666E+02  7.1607422E+03
 1.6583981E+02  7.1568550E+03
 1.6599295E+02  7.1559292E+03
 1.6614610E+02  7.1532827E+03
 1.6629926E+02  7.1503843E+03
 1.6645239E+02  7.1504658E+03
 1.6660555E+02  7.1487520E+03
 1.6675868E+02  7.1469482E+03
 1.6691183E+02  7.1463242E+03
 1.6706497E+02  7.1457559E+03
 1.6721812E+02  7.1420146E+03
 1.6737126E+02  7.1413540E+03
 1.6752441E+02  7.1410591E+03
 1.6767755E+02  7.1389355E+03
 1.6783070E+02  7.1370596E+03
 1.6798384E+02  7.1330449E+03
 1.6813699E+02  7.1284731E+03
 1.6829013E+02  7.1233677E+03
 1.6844328E+02  7.1229771E+03
 1.6859642E+02  7.1232793E+03
 1.6874957E+02  7.1215303E+03
 1.6890273E+02  7.1206953E+03
 1.6905586E+02  7.1188799E+03
 1.6920901E+02  7.1165967E+03
 1.6936215E+02  7.1148564E+03
 1.6951530E+02  7.1126548E+03
 1.6966844E+02  7.1152505E+03
 1.6982159E+02  7.1157710E+03
 1.6997473E+02  7.1123198E+03
 1.7012788E+02  7.1126782E+03
 1.7028102E+02  7.1107813E+03
 1.7043417E+02  7.1072075E+03
 1.7058731E+02  7.1058276E+03
 1.7074046E+02  7.1068550E+03
 1.7089360E+02  7.1081128E+03
 1.7104675E+02  7.1064673E+03
 1.7119989E+02  7.1041421E+03
 1.7135304E+02  7.1016455E+03
 1.7150620E+02  7.1046968E+03
 1.7165933E+02  7.1046880E+03
 1.7181248E+02  7.1005854E+03
 1.7196562E+02  7.0971489E+03
 1.7211877E+02  7.0939009E+03
 1.7227191E+02  7.0905054E+03
 1.7242506E+02  7.0885596E+03
 1.7257820E+02  7.0850112E+03
 1.7273135E+02  7.0821113E+03
 1.7288449E+02  7.0761860E+03
 1.7303764E+02  7.0716050E+03
 1.7319078E+02  7.0726460E+03
 1.7334393E+02  7.0741250E+03
 1.7349707E+02  7.0745850E+03
 1.7365022E+02  7.0722007E+03
 1.7380336E+02  7.0682422E+03
 1.7395651E+02  7.0657886E+03
 1.7410966E+02  7.0654932E+03
 1.7426280E+02  7.0650547E+03
 1.7441595E+02  7.0614141E+03
 1.7456909E+02  7.0621563E+03
 1.7472224E+02  7.0602676E+03
 1.7487538E+02  7.0597710E+03
 1.7502853E+02  7.0614556E+03
 1.7518167E+02  7.0609307E+03
 1.7533482E+02  7.0618335E+03
 1.7548796E+02  7.0619604E+03
 1.7564111E+02  7.0610278E+03
 1.7579425E+02  7.0623633E+03
 1.7594740E+02  7.0631587E+03
 1.7610054E+02  7.0613745E+03
 1.7625369E+02  7.0591157E+03
 1.7640685E+02  7.0593442E+03
 1.7655998E+02  7.0571382E+03
 1.7671313E+02  7.0532124E+03
 1.7686627E+02  7.0489243E+03
 1.7701942E+02  7.0462695E+03
 1.7717256E+02  7.0475713E+03
 1.7732571E+02  7.0487515E+03
 1.7747885E+02  7.0494463E+03
 1.7763200E+02  7.0471606E+03
 1.7778514E+02  7.0451436E+03
 1.7793829E+02  7.0438208E+03
 1.7809143E+02  7.0434053E+03
 1.7824458E+02  7.0412798E+03
 1.7839772E+02  7.0442119E+03
 1.7855087E+02  7.0526377E+03
 1.7870401E+02  7.0519380E+03
 1.7885716E+02  7.0425801E+03
 1.7901031E+02  7.0360449E+03
 1.7916345E+02  7.0325371E+03
 1.7931660E+02  7.0303823E+03
 1.7946974E+02  7.0274653E+03
 1.7962289E+02  7.0253296E+03
 1.7977603E+02  7.0257051E+03
 1.7992918E+02  7.0284487E+03
 1.8008232E+02  7.0309868E+03
 1.8023547E+02  7.0335000E+03
 1.8038861E+02  7.0321841E+03
 1.8054176E+02  7.0286797E+03
 1.8069490E+02  7.0250249E+03
 1.8084805E+02  7.0229609E+03
 1.8100119E+02  7.0235107E+03
 1.8115434E+02  7.0264937E+03
 1.8130748E+02  7.0290391E+03
 1.8146063E+02  7.0293169E+03
 1.8161378E+02  7.0284570E+03
 1.8176692E+02  7.0265688E+03
 1.8192007E+02  7.0252646E+03
 1.8207321E+02  7.0236802E+03
 1.8222636E+02  7.0237310E+03
 1.8237950E+02  7.0248364E+03
 1.8253265E+02  7.0268369E+03
 1.8268579E+02  7.0277417E+03
 1.8283894E+02  7.0253799E+03
 1.8299208E+02  7.0194995E+03
 1.8314523E+02  7.0156953E+03
 1.8329837E+02  7.0170498E+03
 1.8345152E+02  7.0164365E+03
 1.8360466E+02  7.0158306E+03
 1.8375781E+02  7.0180088E+03
 1.8391095E+02  7.0177446E+03
 1.8406410E+02  7.0138745E+03
 1.8421725E+02  7.0107319E+03
 1.8437039E+02  7.0096621E+03
 1.8452354E+02  7.0083394E+03
 1.8467668E+02  7.0079380E+03
 1.8482983E+02  7.0077832E+03
 1.8498297E+02  7.0093047E+03
 1.8513612E+02  7.0109756E+03
 1.8528926E+02  7.0126206E+03
 1.8544241E+02  7.0112705E+03
 1.8559555E+02  7.0069478E+03
 1.8574870E+02  7.0046577E+03
 1.8590184E+02  7.0037329E+03
 1.8605499E+02  7.0042046E+03
 1.8620813E+02  7.0035352E+03
 1.8636128E+02  7.0049829E+03
 1.8651443E+02  7.0035908E+03
 1.8666757E+02  7.0024707E+03
 1.8682072E+02  7.0011587E+03
 1.8697386E+02  6.9987163E+03
 1.8712701E+02  6.9985488E+03
 1.8728015E+02  6.9961108E+03
 1.8743330E+02  6.9917314E+03
 1.8758644E+02  6.9913364E+03
 1.8773959E+02  6.9935137E+03
 1.8789273E+02  6.9946660E+03
 1.8804588E+02  6.9946274E+03
 1.8819902E+02  6.9940542E+03
 1.8835217E+02  6.9925400E+03
 1.8850531E+02  6.9934736E+03
 1.8865846E+02  6.9904619E+03
 1.8881160E+02  6.9886924E+03
 1.8896475E+02  6.9888667E+03
 1.8911790E+02  6.9907593E+03
 1.8927104E+02  6.9896338E+03
 1.8942419E+02  6.9843853E+03
 1.8957733E+02  6.9796831E+03
 1.8973048E+02  6.9793174E+03
 1.8988362E+02  6.9804834E+03
 1.9003677E+02  6.9806514E+03
 1.9018991E+02  6.9822471E+03
 1.9034306E+02  6.9860332E+03
 1.9049620E+02  6.9897607E+03
 1.9064935E+02  6.9862026E+03
 1.9080249E+02  6.9839517E+03
 1.9095564E+02  6.9865679E+03
 1.9110878E+02  6.9863169E+03
 1.9126193E+02  6.9827622E+03
 1.9141507E+02  6.9813042E+03
 1.9156822E+02  6.9819536E+03
 1.9172137E+02  6.9812314E+03
 1.9187451E+02  6.9790405E+03
 1.9202766E+02  6.9754609E+03
 1.9218080E+02  6.9735405E+03
 1.9233395E+02  6.9723022E+03
 1.9248709E+02  6.9715366E+03
 1.9264024E+02  6.9714565E+03
 1.9279338E+02  6.9729199E+03
 1.9294653E+02  6.9754277E+03
 1.9309967E+02  6.9750112E+03
 1.9325282E+02  6.9753110E+03
 1.9340596E+02  6.9744985E+03
 1.9355911E+02  6.9710840E+03
 1.9371225E+02  6.9724746E+03
 1.9386540E+02  6.9755122E+03
 1.9401854E+02  6.9769893E+03
 1.9417169E+02  6.9773999E+03
 1.9432484E+02  6.9793081E+03
 1.9447798E+02  6.9789902E+03
 1.9463113E+02  6.9778350E+03
 1.9478427E+02  6.9784521E+03
 1.9493742E+02  6.9781602E+03
 1.9509056E+02  6.9774219E+03
 1.9524371E+02  6.9786738E+03
 1.9539685E+02  6.9785068E+03
 1.9555000E+02  6.9769810E+03
 1.9570314E+02  6.9730522E+03
 1.9585629E+02  6.9700439E+03
 1.9600943E+02  6.9719673E+03
 1.9616258E+02  6.9718081E+03
 1.9631572E+02  6.9705610E+03
 1.9646887E+02  6.9687280E+03
 1.9662202E+02  6.9680332E+03
 1.9677516E+02  6.9667705E+03
 1.9692831E+02  6.9654980E+03
 1.9708145E+02  6.9650684E+03
 1.9723460E+02  6.9656943E+03
 1.9738774E+02  6.9668789E+03
 1.9754089E+02  6.9694507E+03
 1.9769403E+02  6.9700923E+03
 1.9784718E+02  6.9711646E+03
 1.9800032E+02  6.9710996E+03
 1.9815347E+02  6.9689434E+03
 1.9830661E+02  6.9666914E+03
 1.9845976E+02  6.9641563E+03
 1.9861290E+02  6.9621338E+03
 1.9876605E+02  6.9633643E+03
 1.9891919E+02  6.9634595E+03
 1.9907234E+02  6.9618813E+03
 1.9922549E+02  6.9591792E+03
 1.9937863E+02  6.9566953E+03
 1.9953178E+02  6.9568726E+03
 1.9968492E+02  6.9602808E+03
 1.9983807E+02  6.9631450E+03
 1.9999121E+02  6.9627339E+03
 2.0014436E+02  6.9589443E+03
 2.0029750E+02  6.9545918E+03
 2.0045065E+02  6.9514673E+03
 2.0060379E+02  6.9492275E+03
 2.0075694E+02  6.9504888E+03
 2.0091008E+02  6.9528721E+03
 2.0106323E+02  6.9533491E+03
 2.0121637E+02  6.9509448E+03
 2.0136952E+02  6.9518940E+03
 2.0152266E+02  6.9521050E+03
 2.0167581E+02  6.9497129E+03
 2.0182896E+02  6.9488589E+03
 2.0198210E+02  6.9509868E+03
 2.0213525E+02  6.9533887E+03
 2.0228839E+02  6.9519312E+03
 2.0244154E+02  6.9497256E+03
 2.0259468E+02  6.9508149E+03
 2.0274783E+02  6.9535269E+03
 2.0290097E+02  6.9502910E+03
 2.0305412E+02  6.9480532E+03
 2.0320726E+02  6.9505469E+03
 2.0336041E+02  6.9499810E+03
 2.0351355E+02  6.9498403E+03
 2.0366670E+02  6.9510962E+03
 2.0381984E+02  6.9504365E+03
 2.0397299E+02  6.9508613E+03
 2.0412613E+02  6.9512095E+03
 2.0427928E+02  6.9506333E+03
 2.0443243E+02  6.9504731E+03
 2.0458557E+02  6.9505298E+03
 2.0473872E+02  6.9498105E+03
 2.0489186E+02  6.9482988E+03
 2.0504501E+02  6.9484824E+03
 2.0519815E+02  6.9479688E+03
 2.0535130E+02  6.9482358E+03
 2.0550444E+02  6.9494536E+03
 2.0565759E+02  6.9477109E+03
 2.0581073E+02  6.9472549E+03
 2.0596388E+02  6.9459814E+03
 2.0611702E+02  6.9431499E+03
 2.0627017E+02  6.9412324E+03
 2.0642331E+02  6.9394980E+03
 2.0657646E+02  6.9344678E+03
 2.0672961E+02  6.9299668E+03
 2.0688275E+02  6.9299136E+03
 2.0703590E+02  6.9320732E+03
 2.0718904E+02  6.9316426E+03
 2.0734219E+02  6.9317080E+03
 2.0749533E+02  6.9322285E+03
 2.0764848E+02  6.9319521E+03
 2.0780162E+02  6.9323994E+03
 2.0795477E+02  6.9326821E+03
 2.0810791E+02  6.9323828E+03
 2.0826106E+02  6.9330166E+03
 2.0841420E+02  6.9307319E+03
 2.0856735E+02  6.9322603E+03
 2.0872049E+02  6.9327573E+03
 2.0887364E+02  6.9328149E+03
 2.0902678E+02  6.9327817E+03
 2.0917993E+02  6.9331211E+03
 2.0933308E+02  6.9316895E+03
 2.0948622E+02  6.9286860E+03
 2.0963937E+02  6.9285190E+03
 2.0979251E+02  6.9300811E+03
 2.0994566E+02  6.9293555E+03
 2.1009880E+02  6.9283179E+03
 2.1025195E+02  6.9279004E+03
 2.1040509E+02  6.9265430E+03
 2.1055824E+02  6.9266250E+03
 2.1071138E+02  6.9231709E+03
 2.1086453E+02  6.9210615E+03
 2.1101767E+02  6.9225840E+03
 2.1117082E+02  6.9297441E+03
 2.1132396E+02  6.9319980E+03
 2.1147711E+02  6.9323550E+03
 2.1163025E+02  6.9283354E+03
 2.1178340E+02  6.9252778E+03
 2.1193655E+02  6.9244297E+03
 2.1208969E+02  6.9234302E+03
 2.1224284E+02  6.9252939E+03
 2.1239598E+02  6.9240625E+03
 2.1254913E+02  6.9212109E+03
 2.1270227E+02  6.9221396E+03
 2.1285542E+02  6.9241343E+03
 2.1300856E+02  6.9260044E+03
 2.1316171E+02  6.9251689E+03
 2.1331485E+02  6.9233721E+03
 2.1346800E+02  6.9228999E+03
 2.1362114E+02  6.9217266E+03
 2.1377429E+02  6.9246616E+03
 2.1392743E+02  6.9273867E+03
 2.1408058E+02  6.9257090E+03
 2.1423372E+02  6.9224907E+03
 2.1438687E+02  6.9214307E+03
 2.1454002E+02  6.9215361E+03
 2.1469316E+02  6.9209585E+03
 2.1484631E+02  6.9208120E+03
 2.1499945E+02  6.9222241E+03
 2.1515260E+02  6.9207681E+03
 2.1530574E+02  6.9208496E+03
 2.1545889E+02  6.9231572E+03
 2.1561203E+02  6.9221187E+03
 2.1576518E+02  6.9250010E+03
 2.1591832E+02  6.9237241E+03
 2.1607147E+02  6.9214907E+03
 2.1622461E+02  6.9243618E+03
 2.1637776E+02  6.9218965E+03
 2.1653090E+02  6.9180122E+03
 2.1668405E+02  6.9156938E+03
 2.1683720E+02  6.9149556E+03
 2.1699034E+02  6.9138330E+03
 2.1714349E+02  6.9138398E+03
 2.1729663E+02  6.9143115E+03
 2.1744978E+02  6.9146831E+03
 2.1760292E+02  6.9163799E+03
 2.1775607E+02  6.9159922E+03
 2.1790921E+02  6.9149541E+03
 2.1806236E+02  6.9138491E+03
 2.1821550E+02  6.9161548E+03
 2.1836865E+02  6.9171553E+03
 2.1852179E+02  6.9145654E+03
 2.1867494E+02  6.9132148E+03
 2.1882808E+02  6.9146699E+03
 2.1898123E+02  6.9133945E+03
 2.1913437E+02  6.9133638E+03
 2.1928752E+02  6.9158506E+03
 2.1944067E+02  6.9158018E+03
 2.1959381E+02  6.9119424E+03
 2.1974696E+02  6.9118525E+03
 2.1990010E+02  6.9144873E+03
 2.2005325E+02  6.9125815E+03
 2.2020639E+02  6.9087847E+03
 2.2035954E+02  6.9041245E+03
 2.2051268E+02  6.9048003E+03
 2.2066583E+02  6.9037495E+03
 2.2081897E+02  6.9026567E+03
 2.2097212E+02  6.9053223E+03
 2.2112526E+02  6.9082393E+03
 2.2127841E+02  6.9113101E+03
 2.2143155E+02  6.9135278E+03
 2.2158470E+02  6.9128594E+03
 2.2173784E+02  6.9110020E+03
 2.2189099E+02  6.9070977E+03
 2.2204414E+02  6.9036172E+03
 2.2219728E+02  6.9020000E+03
 2.2235043E+02  6.9031909E+03
 2.2250357E+02  6.9027739E+03
 2.2265672E+02  6.9037759E+03
 2.2280986E+02  6.9071890E+03
 2.2296301E+02  6.9092939E+03
 2.2311615E+02  6.9087939E+03
 2.2326930E+02  6.9063003E+03
 2.2342244E+02  6.9074009E+03
 2.2357559E+02  6.9062998E+03
 2.2372873E+02  6.9035459E+03
 2.2388188E+02  6.9017329E+03
 2.2403502E+02  6.8992471E+03
 2.2418817E+02  6.8979141E+03
 2.2434131E+02  6.8987769E+03
 2.2449446E+02  6.8993691E+03
 2.2464761E+02  6.9009604E+03
 2.2480075E+02  6.8985713E+03
 2.2495390E+02  6.8989194E+03
 2.2510704E+02  6.8970459E+03
 2.2526019E+02  6.8973457E+03
 2.2541333E+02  6.8987310E+03
 2.2556648E+02  6.8984961E+03
 2.2571962E+02  6.8966963E+03
 2.2587277E+02  6.8943013E+03
 2.2602591E+02  6.8947681E+03
 2.2617906E+02  6.8970703E+03
 2.2633220E+02  6.8986553E+03
 2.2648535E+02  6.8972344E+03
 2.2663849E+02  6.8961172E+03
 2.2679164E+02  6.8995156E+03
 2.2694479E+02  6.8983384E+03
 2.2709793E+02  6.8965811E+03
 2.2725108E+02  6.8956982E+03
 2.2740422E+02  6.8988467E+03
 2.2755737E+02  6.8991133E+03
 2.2771051E+02  6.9002271E+03
 2.2786366E+02  6.8983184E+03
 2.2801680E+02  6.8990869E+03
 2.2816995E+02  6.8994883E+03
 2.2832309E+02  6.8989297E+03
 2.2847624E+02  6.8957197E+03
 2.2862938E+02  6.8936455E+03
 2.2878253E+02  6.8906997E+03
 2.2893567E+02  6.8901338E+03
 2.2908882E+02  6.8907529E+03
 2.2924196E+02  6.8931211E+03
 2.2939511E+02  6.8929336E+03
 2.2954826E+02  6.8932529E+03
 2.2970140E+02  6.8942827E+03
 2.2985455E+02  6.8935200E+03
 2.3000769E+02  6.8922090E+03
 2.3016084E+02  6.8942368E+03
 2.3031398E+02  6.8953848E+03
 2.3046713E+02  6.8964517E+03
 2.3062027E+02  6.8972134E+03
 2.3077342E+02  6.8983345E+03
 2.3092656E+02  6.8979600E+03
 2.3107971E+02  6.8978525E+03
 2.3123285E+02  6.8942539E+03
 2.3138600E+02  6.8925146E+03
 2.3153914E+02  6.8947241E+03
 2.3169229E+02  6.8993740E+03
 2.3184543E+02  6.9004863E+03
 2.3199858E+02  6.8969551E+03
 2.3215173E+02  6.8961274E+03
 2.3230487E+02  6.8953140E+03
 2.3245802E+02  6.8970386E+03
 2.3261116E+02  6.8964658E+03
 2.3276431E+02  6.8946050E+03
 2.3291745E+02  6.8964004E+03
 2.3307060E+02  6.8992983E+03
 2.3322374E+02  6.9016577E+03
 2.3337689E+02  6.9047036E+03
 2.3353003E+02  6.9069199E+03
 2.3368318E+02  6.9029365E+03
 2.3383632E+02  6.8968096E+03
 2.3398947E+02  6.8970615E+03
 2.3414261E+02  6.8991846E+03
 2.3429576E+02  6.8979248E+03
 2.3444890E+02  6.8975796E+03
 2.3460205E+02  6.8972520E+03
 2.3475520E+02  6.8971704E+03
 2.3490834E+02  6.9003896E+03
 2.3506149E+02  6.8999365E+03
 2.3521463E+02  6.8990879E+03
 2.3536778E+02  6.8975117E+03
 2.3552092E+02  6.8978516E+03
 2.3567407E+02  6.8970718E+03
 2.3582721E+02  6.8964790E+03
 2.3598036E+02  6.8993965E+03
 2.3613350E+02  6.9016240E+03
 2.3628665E+02  6.9005679E+03
 2.3643979E+02  6.8982681E+03
 2.3659294E+02  6.8967422E+03
 2.3674608E+02  6.8973501E+03
 2.3689923E+02  6.8969043E+03
 2.3705237E+02  6.8987070E+03
 2.3720552E+02  6.8998105E+03
 2.3735867E+02  6.9027427E+03
 2.3751181E+02  6.9040503E+03
 2.3766496E+02  6.9025991E+03
 2.3781810E+02  6.9005029E+03
 2.3797125E+02  6.9015288E+03
 2.3812439E+02  6.9007705E+03
 2.3827754E+02  6.8984619E+03
 2.3843068E+02  6.8951597E+03
 2.3858383E+02  6.8954771E+03
 2.3873697E+02  6.8990171E+03
 2.3889012E+02  6.9001890E+03
 2.3904326E+02  6.8986963E+03
 2.3919641E+02  6.8989468E+03
 2.3934955E+02  6.9024683E+03
 2.3950270E+02  6.9081191E+03
 2.3965585E+02  6.9070034E+03
 2.3980899E+02  6.9006123E+03
 2.3996214E+02  6.8988906E+03
 2.4011528E+02  6.9036880E+03
 2.4026843E+02  6.9062939E+03
 2.4042157E+02  6.9080864E+03
 2.4057472E+02  6.9088750E+03
 2.4072786E+02  6.9055405E+03
 2.4088101E+02  6.9046074E+03
 2.4103415E+02  6.9032280E+03
 2.4118730E+02  6.9005195E+03
 2.4134044E+02  6.9012744E+03
 2.4149359E+02  6.9042109E+03
 2.4164673E+02  6.9047900E+03
 2.4179988E+02  6.9064546E+03
 2.4195302E+02  6.9076377E+03
 2.4210617E+02  6.9058877E+03
 2.4225932E+02  6.9049375E+03
 2.4241246E+02  6.9047505E+03
 2.4256561E+02  6.9017119E+03
 2.4271875E+02  6.8999004E+03
 2.4287190E+02  6.8985996E+03
 2.4302504E+02  6.8965449E+03
 2.4317819E+02  6.8971582E+03
 2.4333133E+02  6.8991260E+03
 2.4348448E+02  6.8979150E+03
 2.4363762E+02  6.8998516E+03
 2.4379077E+02  6.9010762E+03
 2.4394391E+02  6.9022412E+03
 2.4409706E+02  6.8997236E+03
 2.4425020E+02  6.8979438E+03
 2.4440335E+02  6.9001504E+03
 2.4455649E+02  6.9024502E+03
 2.4470964E+02  6.9052607E+03
 2.4486279E+02  6.9047871E+03
 2.4501593E+02  6.9033120E+03
 2.4516908E+02  6.9032466E+03
 2.4532222E+02  6.9056362E+03
 2.4547537E+02  6.9051909E+03
 2.4562851E+02  6.9059604E+03
 2.4578166E+02  6.9092124E+03
 2.4593480E+02  6.9070825E+03
 2.4608795E+02  6.9060952E+03
 2.4624109E+02  6.9063262E+03
 2.4639424E+02  6.9043325E+03
 2.4654738E+02  6.9032227E+03
 2.4670053E+02  6.9060630E+03
 2.4685367E+02  6.9080688E+03
 2.4700682E+02  6.9078091E+03
 2.4715996E+02  6.9066973E+03
 2.4731311E+02  6.9064180E+03
 2.4746626E+02  6.9065137E+03
 2.4761940E+02  6.9028403E+03
 2.4777255E+02  6.9014521E+03
 2.4792569E+02  6.9031016E+03
 2.4807884E+02  6.9060356E+03
 2.4823198E+02  6.9056216E+03
 2.4838513E+02  6.9027700E+03
 2.4853827E+02  6.9003311E+03
 2.4869142E+02  6.9025732E+03
 2.4884456E+02  6.9038540E+03
 2.4899771E+02  6.9002085E+03
 2.4915085E+02  6.8991230E+03
 2.4930400E+02  6.8978950E+03
 2.4945714E+02  6.8973052E+03
 2.4961029E+02  6.8991875E+03
 2.4976344E+02  6.9008799E+03
 2.4991658E+02  6.9018433E+03
 2.5006973E+02  6.9036543E+03
 2.5022287E+02  6.9059570E+03
 2.5037602E+02  6.9076299E+03
 2.5052916E+02  6.9087969E+03
 2.5068231E+02  6.9079014E+03
 2.5083545E+02  6.9041797E+03
 2.5098860E+02  6.9050435E+03
 2.5114174E+02  6.9043267E+03
 2.5129489E+02  6.9042241E+03
 2.5144803E+02  6.9044326E+03
 2.5160118E+02  6.9032417E+03
 2.5175432E+02  6.9043271E+03
 2.5190747E+02  6.9058950E+03
 2.5206061E+02  6.9082261E+03
 2.5221376E+02  6.9088643E+03
 2.5236691E+02  6.9061406E+03
 2.5252005E+02  6.9088125E+03
 2.5267320E+02  6.9105986E+03
 2.5282634E+02  6.9129297E+03
 2.5297949E+02  6.9098315E+03
 2.5313263E+02  6.9040063E+03
 2.5328578E+02  6.9019849E+03
 2.5343892E+02  6.9008677E+03
 2.5359207E+02  6.9035225E+03
 2.5374521E+02  6.9080645E+03
 2.5389836E+02  6.9095532E+03
 2.5405150E+02  6.9118276E+03
 2.5420465E+02  6.9121606E+03
 2.5435779E+02  6.9130293E+03
 2.5451094E+02  6.9113779E+03
 2.5466408E+02  6.9122754E+03
 2.5481723E+02  6.9114434E+03
 2.5497038E+02  6.9127373E+03
 2.5512352E+02  6.9134951E+03
 2.5527667E+02  6.9132554E+03
 2.5542981E+02  6.9117471E+03
 2.5558296E+02  6.9127124E+03
 2.5573610E+02  6.9127461E+03
 2.5588925E+02  6.9146646E+03
 2.5604239E+02  6.9133267E+03
 2.5619553E+02  6.9124165E+03
 2.5634869E+02  6.9130967E+03
 2.5650183E+02  6.9140757E+03
 2.5665497E+02  6.9155508E+03
 2.5680811E+02  6.9146240E+03
 2.5696127E+02  6.9143213E+03
 2.5711441E+02  6.9145229E+03
 2.5726755E+02  6.9146587E+03
 2.5742072E+02  6.9134409E+03
 2.5757385E+02  6.9120239E+03
 2.5772699E+02  6.9131724E+03
 2.5788013E+02  6.9147100E+03
 2.5803329E+02  6.9171113E+03
 2.5818643E+02  6.9160645E+03
 2.5833957E+02  6.9159150E+03
 2.5849271E+02  6.9163228E+03
 2.5864587E+02  6.9167485E+03
 2.5879901E+02  6.9161699E+03
 2.5895215E+02  6.9172085E+03
 2.5910529E+02  6.9193296E+03
 2.5925845E+02  6.9188657E+03
 2.5941159E+02  6.9179629E+03
 2.5956473E+02  6.9202954E+03
 2.5971786E+02  6.9188848E+03
 2.5987103E+02  6.9200732E+03
 2.6002417E+02  6.9216255E+03
 2.6017731E+02  6.9170229E+03
 2.6033047E+02  6.9103472E+03
 2.6048361E+02  6.9105581E+03
 2.6063675E+02  6.9129810E+03
 2.6078989E+02  6.9162065E+03
 2.6094305E+02  6.9164404E+03
 2.6109619E+02  6.9164287E+03
 2.6124933E+02  6.9148945E+03
 2.6140247E+02  6.9144507E+03
 2.6155563E+02  6.9102593E+03
 2.6170877E+02  6.9100713E+03
 2.6186191E+02  6.9131924E+03
 2.6201505E+02  6.9165703E+03
 2.6216821E+02  6.9173633E+03
 2.6232135E+02  6.9221187E+03
 2.6247449E+02  6.9216792E+03
 2.6262766E+02  6.9187275E+03
 2.6278079E+02  6.9158555E+03
 2.6293393E+02  6.9131016E+03
 2.6308707E+02  6.9125610E+03
 2.6324023E+02  6.9148037E+03
 2.6339337E+02  6.9180781E+03
 2.6354651E+02  6.9175103E+03
 2.6369965E+02  6.9154448E+03
 2.6385281E+02  6.9159204E+03
 2.6400595E+02  6.9176958E+03
 2.6415909E+02  6.9178032E+03
 2.6431223E+02  6.9163188E+03
 2.6446539E+02  6.9180581E+03
 2.6461853E+02  6.9190693E+03
 2.6477167E+02  6.9186597E+03
 2.6492484E+02  6.9202065E+03
 2.6507797E+02  6.9212109E+03
 2.6523111E+02  6.9275122E+03
 2.6538425E+02  6.9312759E+03
 2.6553741E+02  6.9264644E+03
 2.6569055E+02  6.9238408E+03
 2.6584369E+02  6.9240830E+03
 2.6599683E+02  6.9231265E+03
 2.6614999E+02  6.9207881E+03
 2.6630313E+02  6.9222134E+03
 2.6645627E+02  6.9257158E+03
 2.6660941E+02  6.9321055E+03
 2.6676257E+02  6.9281436E+03
 2.6691571E+02  6.9267095E+03
 2.6706885E+02  6.9288960E+03
 2.6722198E+02  6.9307168E+03
 2.6737515E+02  6.9285957E+03
 2.6752829E+02  6.9278472E+03
 2.6768143E+02  6.9291157E+03
 2.6783459E+02  6.9328687E+03
 2.6798773E+02  6.9365078E+03
 2.6814087E+02  6.9357920E+03
 2.6829401E+02  6.9358301E+03
 2.6844717E+02  6.9352158E+03
 2.6860031E+02  6.9308594E+03
 2.6875345E+02  6.9310034E+03
 2.6890659E+02  6.9327754E+03
 2.6905975E+02  6.9337861E+03
 2.6921289E+02  6.9292847E+03
 2.6936603E+02  6.9297173E+03
 2.6951917E+02  6.9296611E+03
 2.6967233E+02  6.9301626E+03
 2.6982547E+02  6.9292109E+03
 2.6997861E+02  6.9288955E+03
 2.7013177E+02  6.9279937E+03
 2.7028491E+02  6.9271333E+03
 2.7043805E+02  6.9297754E+03
 2.7059119E+02  6.9323721E+03
 2.7074435E+02  6.9313418E+03
 2.7089749E+02  6.9282983E+03
 2.7105063E+02  6.9257100E+03
 2.7120377E+02  6.9250386E+03
 2.7135693E+02  6.9278315E+03
 2.7151007E+02  6.9280713E+03
 2.7166321E+02  6.9283291E+03
 2.7181635E+02  6.9290278E+03
 2.7196951E+02  6.9286250E+03
 2.7212265E+02  6.9265967E+03
 2.7227579E+02  6.9276636E+03
 2.7242892E+02  6.9312148E+03
 2.7258209E+02  6.9346055E+03
 2.7273523E+02  6.9323110E+03
 2.7288837E+02  6.9350894E+03
 2.7304153E+02  6.9366660E+03
 2.7319467E+02  6.9344556E+03
 2.7334781E+02  6.9349438E+03
 2.7350095E+02  6.9379385E+03
 2.7365411E+02  6.9369458E+03
 2.7380725E+02  6.9300532E+03
 2.7396039E+02  6.9339565E+03
 2.7411353E+02  6.9395913E+03
 2.7426669E+02  6.9415757E+03
 2.7441983E+02  6.9381274E+03
 2.7457297E+02  6.9352163E+03
 2.7472610E+02  6.9339785E+03
 2.7487927E+02  6.9326870E+03
 2.7503241E+02  6.9308086E+03
 2.7518555E+02  6.9337227E+03
 2.7533871E+02  6.9375820E+03
 2.7549185E+02  6.9402983E+03
 2.7564499E+02  6.9448169E+03
 2.7579813E+02  6.9423960E+03
 2.7595129E+02  6.9380337E+03
 2.7610443E+02  6.9329683E+03
 2.7625757E+02  6.9305366E+03
 2.7641071E+02  6.9314282E+03
 2.7656387E+02  6.9331841E+03
 2.7671701E+02  6.9344556E+03
 2.7687015E+02  6.9363965E+03
 2.7702328E+02  6.9353101E+03
 2.7717645E+02  6.9325562E+03
 2.7732959E+02  6.9317876E+03
 2.7748273E+02  6.9347456E+03
 2.7763589E+02  6.9336533E+03
 2.7778903E+02  6.9361157E+03
 2.7794217E+02  6.9396074E+03
 2.7809531E+02  6.9376226E+03
 2.7824847E+02  6.9338906E+03
 2.7840161E+02  6.9323813E+03
 2.7855475E+02  6.9345420E+03
 2.7870789E+02  6.9341465E+03
 2.7886105E+02  6.9314473E+03
 2.7901419E+02  6.9310552E+03
 2.7916733E+02  6.9334883E+03
 2.7932047E+02  6.9362798E+03
 2.7947363E+02  6.9372451E+03
 2.7962677E+02  6.9355923E+03
 2.7977991E+02  6.9359800E+03
 2.7993304E+02  6.9397251E+03
 2.8008621E+02  6.9404985E+03
 2.8023935E+02  6.9395874E+03
 2.8039249E+02  6.9394829E+03
 2.8054565E+02  6.9389419E+03
 2.8069879E+02  6.9390371E+03
 2.8085193E+02  6.9339712E+03
 2.8100507E+02  6.9335400E+03
 2.8115823E+02  6.9334180E+03
 2.8131137E+02  6.9358281E+03
 2.8146451E+02  6.9381572E+03
 2.8161765E+02  6.9438193E+03
 2.8177081E+02  6.9487896E+03
 2.8192395E+02  6.9501533E+03
 2.8207709E+02  6.9467437E+03
 2.8223022E+02  6.9419482E+03
 2.8238339E+02  6.9390210E+03
 2.8253653E+02  6.9430537E+03
 2.8268967E+02  6.9449624E+03
 2.8284283E+02  6.9425938E+03
 2.8299597E+02  6.9440181E+03
 2.8314911E+02  6.9448613E+03
 2.8330225E+02  6.9448467E+03
 2.8345541E+02  6.9445068E+03
 2.8360855E+02  6.9437935E+03
 2.8376169E+02  6.9430420E+03
 2.8391483E+02  6.9460005E+03
 2.8406799E+02  6.9478975E+03
 2.8422113E+02  6.9469194E+03
 2.8437427E+02  6.9431748E+03
 2.8452740E+02  6.9450391E+03
 2.8468057E+02  6.9435210E+03
 2.8483371E+02  6.9421616E+03
 2.8498685E+02  6.9496670E+03
